605
610
625
630
640
640
620
611
554
539
499
489
471
467
465
466
467
470
474
474
478
479
478
477
480
481
481
482
483
482
483
503
518
511
487
479
473
471
477
476
476
478
570
587
698
734
250
269
497
503
509
511
522
526
537
539
544
548
557
559
565
592
620
623
647
652
641
633
592
572
513
502
475
473
467
468
469
470
474
473
474
473
470
480
482
485
487
492
492
517
513
498
471
470
471
475
476
470
588
699
259
501
512
526
536
548
564
584
606
636
642
652
647
617
604
541
527
515
502
475
468
474
477
476
477
475
480
481
483
485
486
486
486
487
484
484
486
487
484
486
490
490
488
483
484
487
487
486
489
488
486
485
489
497
504
508
513
520
523
521
515
512
510
510
506
505
505
499
490
484
480
478
474
472
472
473
473
472
473
476
478
47483
514
562
602
615
635
667
687
700
628
506
359
237
236
313
399
460
488
495
504
508
509
511
515
518
518
519
522
528
530
531
532
534
536
538
541
545
546
547
548
550
554
557
560
564
568
571
574
578
582
585
591
598
607
613
615
618
624
628
628
632
636
642
642
641
640
638
633
626
618
608
593
584
568
553
538
522
508
498
489
481
477
474
472
468
463
462
465
467
466
464
463
462
461
463
465
467
465
462
463
467
470
474
478
477
473
474
480
483
483
482
483
484
483
483
483
484
483
483
478
479
480
484
485
492
496
494
488
488
493
496
502
508
515
519
522
521
519
515
510
506
504
505
504
498
490
482
470
466
464
464
469
472
473
473
472
471
472
473
474
472
470
472
475
478
478
488
521
560
576
587
595
623
672
716
674
560
401
263
254
287
372
440
482
495
496
496
496
499
502
502
503
506
511
515
517
520
523
520
520
524
532
534
533
534
535
536
540
546
549
554
558
560
561
566
569
574
579
584
588
594
601
606
609
613
618
626
631
629
627
627
630
627
621
618
610
596
577
563
555
545
530
519
514
506
501
489
484
486
483
477
477
475
469
465
467
468
473
471
469
468
469
469
470
473
475
471
469
467
467
470
478
487
487
481
476
479
486
489
491
490
486
484
481
485
491
493
490
486
482
481
483
485
487
490
490
489
488
487
486
480
477
478
480
483
490
504
518
523
524
522
515
510
512
513
514
510
502
493
486
481
478
475
473
472
470
470
472
475
478
479
477
476
474
472
475
478
478
478
489
522
562
586
589
591
600
610
636
614
519
384
254
221
281
374
453
489
503
510
511
514
517
522
525
525
526
530
534
534
535
538
543
546
546
549
550
548
548
554
559
564
568
568
571
574
576
578
583
588
591
594
600
606
610
617
625
629
630
630
635
641
644
644
647
648
644
638
633
630
624
612
598
584
567
552
540
527
514
504
495
489
486
483
480
476
474
472
471
474
475
478
476
475
477
480
481
480
481
483
481
480
481
483
483
481
485
487
484
483
485
489
492
491
485
483
484
485
485
488
490
489
487
486
486
487
486
486
488
488
486
486
489
489
488
482
481
486
489
488
486
483
485
489
500
518
531
536
532
528
522
517
514
512
510
508
502
498
492
483
476
473
474
473
473
473
473
475
475
476
479
483
480
478
478
480
482
482
490
520
556
579
582
589
612
651
685
631
576
431
286
235
290
387
463
496
506
512
512
512
514
515
518
522
528
531
531
531
534
536
538
541
544
547
548
548
552
554
555
556
558
565
571
576
578
581
585
592
595
603
609
610
611
614
624
633
638
643
647
649
650
652
653
652
648
643
638
633
622
609
594
577
559
550
534
520
512
501
487
478
477
473
469
467
466
464
463
462
464
465
465
467
469
470
467
464
463
469
473
475
475
474
474
474
474
475
478
477
478
477
479
479
475
475
479
480
482
485
481
471
470
478
486
489
486
483
482
481
480
480
481
484
482
480
480
481
475
476
479
485
490
488
488
490
486
480
479
487
499
505
521
537
546
539
526
517
510
509
512
516
517
509
496
484
478
475
476
475
476
479
479
479
479
478
477
477
478
479
478
481
486
487
486
499
530
561
575
575
597
640
710
732
698
572
410
280
262
338
433
487
503
507
511
511
513
515
518
522
521
522
526
528
530
532
534
539
541
542
542
546
550
549
550
553
557
560
563
568
571
572
576
583
589
592
598
601
643
648
651
652
651
649
649
646
639
629
620
605
587
571
563
545
528
515
505
497
486
475
470
469
467
466
464
462
462
463
464
465
465
464
464
465
466
467
466
466
469
469
469
470
473
475
475
477
479
479
476
475
475
474
473
474
476
477
477
478
480
481
478
476
479
482
481
480
480
480
480
479
482
484
482
479
477
481
484
483
482
484
487
486
480
476
478
480
482
493
500
512
519
519
517
518
512
512
520
528
528
524
515
503
489
475
470
472
473
471
468
471
476
476
475
478
477
476
478
481
481
476
475
487
521
567
597
600
613
644
690
670
565
497
344
230
241
331
423
478
496
503
508
515
518
521
522
523
523
527
531
532
530
531
539
543
546
545
545
546
548
550
555
559
563
566
567
571
574
576
578
584
589
593
596
602
608
614
622
629
635
639
643
646
647
647
647
649
652
649
641
633
626
616
601
585
570
554
546
532
520
511
501
492
483
478
475
473
473
472
470
468
467
469
471
470
470
471
473
471
469
470
474
476
475
476
478
480
480
482
484
485
483
483
484
486
486
486
487
489
488
486
486
486
486
485
484
485
484
481
483
485
485
482
482
484
485
486
486
488
489
487
487
488
486
484
488
495
503
520
537
543
538
526
519
509
510
514
514
512
508
502
492
480
471
469
469
468
472
475
476
474
475
477
478
476
475
476
479
480
480
480
482
500
540
589
619
633
645
665
670
594
474
332
217
221
303
352
435
484
501
509
515
521
522
521
523
528
531
532
532
536
539
540
541
543
548
550
550
551
554
558
559
560
564
568
569
571
575
580
581
585
591
598
603
607
611
620
628
632
637
640
645
646
647
648
650
649
646
642
638
631
621
609
596
580
562
545
531
518
506
498
495
489
481
476
473
471
468
467
467
468
468
468
468
469
468
467
468
471
473
473
474
476
476
476
476
478
479
480
480
482
483
483
481
482
485
486
485
486
486
486
484
485
486
484
483
481
482
483
482
480
480
481
482
480
481
484
485
482
481
483
483
478
480
487
494
499
514
530
537
528
514
505
506
508
508
507
508
504
496
485
478
471
466
464
469
472
471
470
470
471
472
471
471
474
476
474
474
476
476
485
515
558
592
600
611
635
680
688
604
539
389
262
245
313
403
467
491
497
504
508
507
507
510
517
520
520
521
525
527
527
527
530
534
538
540
542
542
543
546
551
557
558
559
562
566
568
570
574
581
586
589
594
598
605
611
616
621
626
629
633
636
639
639
638
637
637
634
624
613
605
594
579
563
549
543
531
516
507
499
490
481
478
478
476
474
471
471
470
468
468
470
471
470
470
473
475
476
475
474
477
479
480
479
482
484
483
482
482
485
483
481
483
486
486
485
485
487
487
485
484
486
489
488
486
487
486
485
485
486
486
485
483
482
484
485
484
485
486
489
490
488
488
485
483
487
496
509
526
541
545
537
522
510
508
512
515
513
510
506
500
495
484
477
474
472
472
475
476
476
477
479
479
481
479
478
479
480
481
482
486
509
547
566
596
606
619
640
684
698
615
473
323
248
254
322
410
472
497
505
509
512
514
516
516
517
521
524
525
528
533
537
538
540
542
544
544
545
550
554
556
558
562
566
569
571
573
578
584
586
589
596
603
606
610
617
625
627
630
636
642
645
646
648
650
648
644
640
638
632
623
610
599
587
571
554
540
527
515
508
498
490
483
477
472
471
471
468
466
466
468
468
466
465
471
474
476
475
475
476
478
479
480
482
483
482
480
481
483
484
482
483
485
484
482
482
482
480
479
480
481
483
481
478
479
481
481
480
482
485
485
486
487
487
483
477
479
483
494
506
522
537
542
534
521
511
508
508
509
510
512
508
500
492
486
478
471
469
471
472
472
471
472
475
474
473
475
477
477
476
475
478
480
493
527
566
590
598
615
644
669
708
655
527
370
256
256
335
425
479
496
499
505
508
507
508
511
515
520
522
525
528
530
532
535
537
539
539
541
545
547
548
550
553
557
560
561
565
569
572
574
577
582
587
592
599
606
611
616
622
627
633
638
641
643
646
646
644
644
642
636
629
620
610
597
588
570
556
543
528
514
504
497
489
482
478
477
473
468
468
469
469
469
471
472
472
470
469
469
471
472
473
475
476
476
476
477
479
480
478
477
479
481
482
481
482
485
483
482
482
483
481
480
482
484
483
481
482
482
482
481
481
481
481
481
481
483
483
482
480
481
484
484
484
486
485
481
479
482
491
507
516
530
538
539
532
520
512
511
512
513
512
511
506
496
486
479
476
474
473
474
476
474
474
475
476
477
476
476
477
478
478
478
480
481
494
530
570
592
600
619
650
699
686
641
507
350
247
258
343
433
484
498
504
510
512
512
513
517
520
521
522
525
528
528
528
530
534
538
540
541
545
547
547
549
554
559
561
564
568
573
577
579
582
587
592
595
601
605
612
617
622
627
633
636
640
644
647
647
646
646
643
637
629
622
612
599
584
568
561
546
532
519
509
500
489
482
478
475
472
471
471
471
470
468
467
468
470
470
471
473
474
473
472
473
475
475
475
476
477
478
477
477
481
484
484
484
485
488
487
484
483
484
484
482
483
485
485
484
485
485
484
483
480
480
483
483
481
483
483
481
482
484
485
485
485
486
488
486
486
484
482
481
483
491
497
514
529
536
537
534
525
516
512
513
514
513
510
505
498
488
480
476
474
471
472
475
476
477
477
477
480
480
478
478
479
480
479
479
480
486
510
551
593
611
622
639
677
689
604
465
314
223
252
342
433
487
504
508
510
515
519
522
523
526
530
531
531
534
538
540
540
540
544
548
550
551
555
559
560
562
564
568
570
573
576
581
584
588
595
603
608
609
613
618
625
632
636
640
646
649
650
652
653
651
648
645
642
637
628
618
608
595
578
560
545
532
518
505
497
490
483
479
476
475
474
469
467
468
468
468
470
472
474
472
472
473
475
475
476
477
478
478
477
478
480
480
481
482
484
484
483
483
485
486
483
482
482
484
485
484
483
484
484
480
480
482
482
481
478
481
483
482
480
481
484
485
481
480
483
483
478
477
479
482
487
503
523
535
536
533
526
518
513
509
511
514
510
502
492
488
481
474
471
470
473
474
476
478
476
476
477
478
479
480
481
482
484
485
482
488
516
538
591
629
646
663
676
675
602
487
345
213
192
244
343
428
479
497
505
511
515
519
524
526
529
532
534
533
533
537
540
543
544
544
546
549
552
554
558
562
563
564
567
572
574
576
581
586
591
594
599
605
610
615
621
624
631
637
642
646
649
651
649
648
648
645
643
638
631
621
608
593
579
564
547
531
516
511
500
489
482
478
474
470
466
466
465
464
464
465
465
464
465
467
467
467
469
472
473
475
475
475
475
475
473
475
478
479
478
477
480
481
479
478
479
480
481
480
479
478
479
479
479
478
477
474
474
476
478
480
477
472
470
474
480
485
500
516
525
524
521
516
512
507
502
502
503
499
491
484
478
472
467
467
471
472
472
471
473
474
472
473
474
476
475
475
477
479
480
481
503
549
598
623
639
657
683
695
670
569
426
274
214
271
369
447
487
499
505
507
509
510
513
518
519
520
523
527
531
533
534
536
539
541
542
544
547
549
552
555
557
557
559
564
568
570
573
578
583
586
590
593
600
606
610
617
624
628
630
633
638
638
636
635
636
636
632
625
618
609
596
582
568
561
548
531
519
509
501
492
484
480
477
473
471
470
470
467
464
464
466
467
468
468
469
469
470
471
472
475
476
476
478
480
481
480
481
484
486
486
486
488
486
484
485
486
486
484
486
487
489
489
488
488
488
486
485
486
488
489
486
485
487
486
486
487
489
491
490
487
482
481
481
483
492
508
523
529
532
531
526
520
515
514
513
511
506
502
496
488
484
479
478
476
474
475
478
479
478
478
479
480
480
481
483
484
482
482
490
517
557
577
605
614
631
655
696
681
575
423
280
238
258
343
430
483
503
511
514
515
517
519
522
524
529
533
533
534
538
542
542
544
547
550
550
549
553
557
559
560
562
566
569
571
574
576
580
585
589
594
600
605
609
617
625
628
631
637
643
646
646
646
647
646
642
637
635
630
621
609
596
581
564
547
534
523
510
504
494
489
485
479
475
473
471
468
467
468
469
468
466
465
468
470
470
470
471
472
472
472
476
479
478
477
479
482
481
480
481
483
484
483
482
484
484
483
482
484
484
483
482
482
481
479
478
479
482
481
480
480
481
481
482
483
485
485
480
477
477
478
480
492
500
517
526
527
526
523
516
509
507
509
508
506
500
494
488
480
475
472
470
469
469
471
472
473
473
475
476
477
476
476
478
479
478
477
489
522
560
585
593
610
635
680
695
612
468
314
239
277
370
450
488
501
505
505
505
507
511
514
516
520
524
526
528
533
536
536
537
539
542
544
545
545
547
551
556
559
561
566
569
571
573
579
584
587
591
598
604
607
612
618
626
631
634
638
643
646
647
647
648
647
643
637
630
621
610
596
582
565
547
530
517
506
494
486
481
478
474
469
467
467
467
465
464
464
465
464
465
467
469
468
468
469
472
473
475
475
477
477
475
478
480
480
480
480
481
482
480
480
481
483
481
478
478
479
480
480
480
481
482
481
481
482
485
484
482
481
482
482
482
483
486
486
480
478
478
479
484
497
514
526
528
526
522
517
514
510
507
508
507
502
495
488
481
475
473
473
474
473
473
475
476
475
476
478
478
478
478
477
480
482
480
487
517
557
591
603
616
629
658
703
682
573
415
266
226
292
389
462
482
500
505
508
509
512
515
517
519
523
526
528
531
534
536
538
541
544
546
549
549
550
553
557
558
560
565
571
574
576
581
586
587
589
594
601
607
612
618
625
629
632
636
639
642
645
647
648
647
643
637
632
625
615
609
595
579
563
548
532
522
511
500
492
487
485
480
475
473
474
472
469
468
470
471
470
470
471
471
470
473
478
478
477
477
481
482
482
480
481
483
482
481
482
485
485
483
483
483
485
484
484
485
486
484
482
482
484
484
483
482
483
483
483
484
488
488
485
485
485
483
480
478
479
486
499
515
527
531
528
526
519
512
509
506
505
506
503
497
487
479
475
470
466
467
471
471
470
472
474
473
473
472
473
474
474
473
474
478
495
533
574
589
336
237
256
296
390
464
492
499
503
507
510
510
513
515
516
517
520
527
530
529
531
535
537
537
537
537
541
544
546
548
554
558
560
562
565
569
572
577
584
588
592
598
604
610
616
620
622
627
632
635
636
639
641
639
638
635
628
622
612
602
593
579
561
546
533
520
508
497
494
487
480
475
473
469
465
464
464
463
463
463
465
465
465
465
467
468
468
469
469
472
473
472
470
472
475
475
475
478
480
478
480
483
484
483
482
485
486
484
483
486
487
488
485
482
483
484
482
480
482
484
483
484
485
486
483
481
481
489
501
512
519
523
525
524
521
515
512
509
505
505
503
496
486
478
476
472
468
466
467
468
468
470
472
472
471
470
471
475
477
476
473
475
476
489
523
564
594
604
622
650
694
687
589
438
284
225
242
325
418
478
496
502
508
512
513
516
520
522
523
525
526
530
533
535
537
542
544
545
545
548
550
551
553
557
562
563
564
568
572
575
579
584
590
595
598
604
611
616
621
627
630
638
643
646
648
651
651
649
648
645
641
633
624
614
600
581
562
548
536
522
511
507
499
491
481
477
476
473
469
469
471
471
471
471
472
471
470
471
472
475
476
475
477
477
477
477
479
482
482
481
481
482
484
484
483
484
486
486
487
488
487
485
484
485
486
486
483
481
482
484
483
484
485
486
486
485
486
486
486
485
482
481
481
484
494
508
515
524
531
532
528
517
511
509
509
507
504
502
498
489
480
475
473
470
469
469
472
473
473
472
474
476
476
474
476
477
478
477
477
480
497
533
580
611
629
645
663
671
603
478
404
257
196
252
349
435
485
502
507
510
514
516
518
521
527
530
530
532
536
539
539
540
545
551
552
550
551
555
557
558
561
566
568
571
574
579
585
589
592
598
603
607
612
616
623
631
637
642
646
647
647
648
650
650
648
643
639
635
626
614
601
588
572
556
540
533
520
507
496
488
482
476
472
470
469
466
463
463
465
465
465
467
468
467
467
469
471
473
473
473
477
478
477
477
480
481
480
481
481
483
484
483
483
484
483
480
479
482
483
484
483
484
485
483
479
480
483
483
480
480
481
485
484
485
488
487
481
478
480
484
487
496
512
525
530
529
524
517
512
508
506
508
507
501
493
485
481
475
473
473
474
474
474
474
475
477
477
476
477
479
480
482
483
484
481
491
526
577
617
631
649
667
688
680
605
483
334
217
231
319
410
469
493
502
506
510
512
515
519
521
522
524
529
532
533
534
537
540
541
542
545
548
549
551
554
558
560
563
568
573
573
575
580
586
590
592
594
600
608
614
619
624
630
632
634
638
642
642
640
638
637
635
629
622
613
601
587
572
565
551
536
523
510
502
493
485
481
477
472
471
467
466
466
466
466
469
470
467
465
466
468
471
470
471
474
476
474
474
477
480
480
479
480
482
482
482
484
485
483
483
485
486
485
484
483
483
484
482
482
483
483
481
480
481
481
481
481
483
485
485
483
483
485
487
487
487
488
488
484
480
481
485
495
510
518
530
532
527
521
516
512
507
508
509
506
502
495
489
482
477
473
472
474
474
474
476
480
478
476
476
478
480
479
479
481
481
484
505
545
584
600
607
628
659
698
662
548
473
322
243
277
369
450
488
500
508
513
514
515
517
520
521
523
526
530
533
532
535
540
542
543
544
547
550
552
553
556
559
559
560
563
568
572
576
581
586
593
595
598
604
611
616
621
629
644
639
630
622
614
603
589
573
558
543
535
521
511
502
492
484
481
479
475
471
470
470
469
467
466
468
469
470
470
472
473
474
474
474
475
476
476
476
478
480
478
479
481
482
482
483
484
485
484
485
486
488
486
484
483
485
485
484
484
486
484
482
483
484
484
484
483
483
485
483
481
482
485
486
485
484
486
486
486
485
487
488
482
480
481
484
487
499
516
528
532
529
524
520
516
513
512
512
511
507
500
492
485
